Energy_240120_012	Is (A)_1_240120_012	Im (A)_1_240120_012	Is/Im (#)_1_240120_012	Keithley Source (A)_2_240120_012
-8.150561E+2	-3.169769E-10	5.432619E-11	-5.834698E+0	5.438990E-11
-8.149000E+2	-3.162519E-10	5.447503E-11	-5.805447E+0	5.459800E-11
-8.148001E+2	-3.149917E-10	5.450591E-11	-5.779038E+0	5.460960E-11
-8.147000E+2	-3.138585E-10	5.453690E-11	-5.754975E+0	5.474927E-11
-8.146000E+2	-3.126734E-10	5.456533E-11	-5.730258E+0	5.484778E-11
-8.145000E+2	-3.117062E-10	5.458792E-11	-5.710168E+0	5.496706E-11
-8.144000E+2	-3.107525E-10	5.461146E-11	-5.690243E+0	5.504181E-11
-8.143000E+2	-3.099302E-10	5.463141E-11	-5.673114E+0	5.519676E-11
-8.141999E+2	-3.090915E-10	5.466672E-11	-5.654107E+0	5.523223E-11
-8.141000E+2	-3.082195E-10	5.469085E-11	-5.635668E+0	5.543265E-11
-8.139999E+2	-3.075922E-10	5.466119E-11	-5.627250E+0	5.551817E-11
-8.139000E+2	-3.066215E-10	5.472094E-11	-5.603367E+0	5.568802E-11
-8.138000E+2	-3.058470E-10	5.473620E-11	-5.587655E+0	5.579012E-11
-8.137000E+2	-3.052844E-10	5.476548E-11	-5.574395E+0	5.566993E-11
-8.136000E+2	-3.045979E-10	5.478049E-11	-5.560335E+0	5.602030E-11
-8.135001E+2	-3.038443E-10	5.481016E-11	-5.543576E+0	5.606486E-11
-8.133999E+2	-3.030879E-10	5.481405E-11	-5.529383E+0	5.619075E-11
-8.133000E+2	-3.024192E-10	5.483787E-11	-5.514787E+0	5.628565E-11
-8.131999E+2	-3.017842E-10	5.487118E-11	-5.499867E+0	5.651704E-11
-8.131001E+2	-3.011543E-10	5.488424E-11	-5.487082E+0	5.654910E-11
-8.130000E+2	-3.005575E-10	5.491007E-11	-5.473632E+0	5.679038E-11
-8.129000E+2	-3.000697E-10	5.492790E-11	-5.462974E+0	5.679738E-11
-8.128000E+2	-2.996398E-10	5.494602E-11	-5.453349E+0	5.691749E-11
-8.127001E+2	-2.991304E-10	5.496665E-11	-5.442034E+0	5.693358E-11
-8.125999E+2	-2.987234E-10	5.497611E-11	-5.433695E+0	5.700640E-11
-8.125000E+2	-2.983758E-10	5.499972E-11	-5.425042E+0	5.743420E-11
-8.123999E+2	-2.979980E-10	5.500873E-11	-5.417286E+0	5.725676E-11
-8.123001E+2	-2.975963E-10	5.503288E-11	-5.407609E+0	5.743401E-11
-8.122000E+2	-2.975802E-10	5.504426E-11	-5.406199E+0	5.752491E-11
-8.121000E+2	-2.972220E-10	5.506604E-11	-5.397555E+0	5.770815E-11
-8.120000E+2	-2.966610E-10	5.507524E-11	-5.386468E+0	5.770264E-11
-8.119001E+2	-2.967494E-10	5.509348E-11	-5.386289E+0	5.774762E-11
-8.117999E+2	-2.964912E-10	5.512856E-11	-5.378178E+0	5.792386E-11
-8.117000E+2	-2.963361E-10	5.514120E-11	-5.374132E+0	5.808901E-11
-8.115999E+2	-2.962993E-10	5.514791E-11	-5.372811E+0	5.825865E-11
-8.115001E+2	-2.962349E-10	5.517935E-11	-5.368583E+0	5.840760E-11
-8.114000E+2	-2.962227E-10	5.515325E-11	-5.370902E+0	5.845904E-11
-8.113000E+2	-2.961646E-10	5.520674E-11	-5.364646E+0	5.859001E-11
-8.112000E+2	-2.964656E-10	5.522313E-11	-5.368504E+0	5.869203E-11
-8.111001E+2	-2.965326E-10	5.522509E-11	-5.369527E+0	5.883919E-11
-8.109999E+2	-2.969281E-10	5.528307E-11	-5.371049E+0	5.909617E-11
-8.109000E+2	-2.973960E-10	5.535105E-11	-5.372906E+0	5.930746E-11
-8.107999E+2	-2.977685E-10	5.541787E-11	-5.373149E+0	5.952117E-11
-8.107001E+2	-2.978870E-10	5.549956E-11	-5.367376E+0	5.942855E-11
-8.106000E+2	-2.981802E-10	5.552437E-11	-5.370258E+0	5.979141E-11
-8.105000E+2	-2.980359E-10	5.557919E-11	-5.362365E+0	5.999234E-11
-8.104000E+2	-2.983450E-10	5.554589E-11	-5.371144E+0	6.005975E-11
-8.103001E+2	-2.984973E-10	5.554768E-11	-5.373713E+0	6.000592E-11
-8.101999E+2	-2.985786E-10	5.557223E-11	-5.372802E+0	6.020273E-11
-8.101000E+2	-2.985671E-10	5.559951E-11	-5.369959E+0	6.024560E-11
-8.099999E+2	-2.987825E-10	5.561276E-11	-5.372553E+0	6.041674E-11
-8.099001E+2	-2.987279E-10	5.562271E-11	-5.370610E+0	6.051096E-11
-8.098000E+2	-2.986410E-10	5.563492E-11	-5.367870E+0	6.055271E-11
-8.097000E+2	-2.984870E-10	5.573060E-11	-5.355891E+0	6.073056E-11
-8.096000E+2	-2.986348E-10	5.566718E-11	-5.364648E+0	6.071127E-11
-8.095001E+2	-2.983961E-10	5.566817E-11	-5.360264E+0	6.082036E-11
-8.093999E+2	-2.981648E-10	5.568536E-11	-5.354456E+0	6.101018E-11
-8.093000E+2	-2.978933E-10	5.569060E-11	-5.349077E+0	6.100791E-11
-8.091999E+2	-2.975550E-10	5.572770E-11	-5.339445E+0	6.110241E-11
-8.091001E+2	-2.970627E-10	5.569461E-11	-5.333778E+0	6.126426E-11
-8.090000E+2	-2.967470E-10	5.572785E-11	-5.324932E+0	6.135227E-11
-8.089000E+2	-2.962122E-10	5.574070E-11	-5.314110E+0	6.144199E-11
-8.088000E+2	-2.957080E-10	5.575150E-11	-5.304037E+0	6.157207E-11
-8.087001E+2	-2.952802E-10	5.573976E-11	-5.297479E+0	6.175599E-11
-8.086000E+2	-2.946637E-10	5.575839E-11	-5.284652E+0	6.186850E-11
-8.085000E+2	-2.939421E-10	5.577427E-11	-5.270210E+0	6.191995E-11
-8.084000E+2	-2.932614E-10	5.577547E-11	-5.257892E+0	6.208312E-11
-8.082999E+2	-2.926975E-10	5.578826E-11	-5.246579E+0	6.220958E-11
-8.082001E+2	-2.921063E-10	5.579932E-11	-5.234944E+0	6.222999E-11
-8.081001E+2	-2.915011E-10	5.580601E-11	-5.223471E+0	6.244476E-11
-8.080001E+2	-2.907787E-10	5.581537E-11	-5.209653E+0	6.258546E-11
-8.078999E+2	-2.900964E-10	5.582570E-11	-5.196467E+0	6.268135E-11
-8.078000E+2	-2.896857E-10	5.584087E-11	-5.187700E+0	6.258834E-11
-8.077001E+2	-2.890881E-10	5.585118E-11	-5.176043E+0	6.295160E-11
-8.076000E+2	-2.884735E-10	5.583901E-11	-5.166164E+0	6.290355E-11
-8.075000E+2	-2.879564E-10	5.584597E-11	-5.156261E+0	6.310406E-11
-8.073999E+2	-2.874098E-10	5.585401E-11	-5.145733E+0	6.325333E-11
-8.072999E+2	-2.870916E-10	5.585365E-11	-5.140069E+0	6.339281E-11
-8.072000E+2	-2.866266E-10	5.589400E-11	-5.128039E+0	6.344137E-11
-8.071000E+2	-2.863194E-10	5.588202E-11	-5.123641E+0	6.347305E-11
-8.070001E+2	-2.863342E-10	5.589660E-11	-5.122569E+0	6.361710E-11
-8.069000E+2	-2.858659E-10	5.589389E-11	-5.114439E+0	6.376506E-11
-8.068001E+2	-2.856199E-10	5.591051E-11	-5.108519E+0	6.379685E-11
-8.067000E+2	-2.856880E-10	5.591091E-11	-5.109700E+0	6.407939E-11
-8.066000E+2	-2.855022E-10	5.591824E-11	-5.105708E+0	6.419485E-11
-8.065000E+2	-2.854347E-10	5.592121E-11	-5.104230E+0	6.437481E-11
-8.064000E+2	-2.854846E-10	5.592620E-11	-5.104667E+0	6.435933E-11
-8.063001E+2	-2.854923E-10	5.594717E-11	-5.102891E+0	6.451268E-11
-8.062000E+2	-2.856126E-10	5.594864E-11	-5.104907E+0	6.464126E-11
-8.061001E+2	-2.857775E-10	5.595329E-11	-5.107430E+0	6.465924E-11
-8.060000E+2	-2.861533E-10	5.595308E-11	-5.114165E+0	6.489331E-11
-8.059000E+2	-2.865098E-10	5.596491E-11	-5.119454E+0	6.498524E-11
-8.057999E+2	-2.869959E-10	5.596582E-11	-5.128057E+0	6.491031E-11
-8.056999E+2	-2.876923E-10	5.598338E-11	-5.138888E+0	6.507237E-11
-8.056000E+2	-2.882289E-10	5.591167E-11	-5.155076E+0	6.546401E-11
-8.055000E+2	-2.889135E-10	5.602557E-11	-5.156815E+0	6.522490E-11
-8.053999E+2	-2.896247E-10	5.598944E-11	-5.172845E+0	6.540966E-11
-8.053000E+2	-2.903260E-10	5.599357E-11	-5.184988E+0	6.562645E-11
-8.051999E+2	-2.912225E-10	5.599751E-11	-5.200633E+0	6.563165E-11
-8.051001E+2	-2.922551E-10	5.601512E-11	-5.217432E+0	6.578470E-11
-8.050001E+2	-2.931025E-10	5.601658E-11	-5.232424E+0	6.589619E-11
-8.049001E+2	-2.943075E-10	5.602576E-11	-5.253075E+0	6.597454E-11
-8.047999E+2	-2.954256E-10	5.602259E-11	-5.273330E+0	6.628503E-11
-8.047000E+2	-2.964859E-10	5.603580E-11	-5.291009E+0	6.655040E-11
-8.046001E+2	-2.977166E-10	5.604746E-11	-5.311866E+0	6.638194E-11
-8.045000E+2	-2.989248E-10	5.604950E-11	-5.333229E+0	6.653969E-11
-8.043999E+2	-3.005295E-10	5.603291E-11	-5.363446E+0	6.675461E-11
-8.043001E+2	-3.015153E-10	5.605568E-11	-5.378854E+0	6.667407E-11
-8.042001E+2	-3.031068E-10	5.605647E-11	-5.407169E+0	6.687388E-11
-8.041001E+2	-3.050351E-10	5.607124E-11	-5.440135E+0	6.691376E-11
-8.039999E+2	-3.067841E-10	5.607019E-11	-5.471430E+0	6.712605E-11
-8.039000E+2	-3.089411E-10	5.606306E-11	-5.510600E+0	6.698559E-11
-8.038001E+2	-3.112636E-10	5.606145E-11	-5.552186E+0	6.726782E-11
-8.037000E+2	-3.135094E-10	5.607099E-11	-5.591294E+0	6.743298E-11
-8.035999E+2	-3.161343E-10	5.608373E-11	-5.636827E+0	6.748442E-11
-8.034999E+2	-3.188244E-10	5.607893E-11	-5.685280E+0	6.746004E-11
-8.033999E+2	-3.222695E-10	5.608567E-11	-5.746022E+0	6.775767E-11
-8.032999E+2	-3.255275E-10	5.609899E-11	-5.802734E+0	6.782162E-11
-8.032000E+2	-3.298128E-10	5.610681E-11	-5.878302E+0	6.783488E-11
-8.031000E+2	-3.339585E-10	5.609400E-11	-5.953551E+0	6.810094E-11
-8.029999E+2	-3.386373E-10	5.610799E-11	-6.035456E+0	6.808297E-11
-8.029001E+2	-3.437611E-10	5.611118E-11	-6.126428E+0	6.837390E-11
-8.028000E+2	-3.491666E-10	5.611735E-11	-6.222079E+0	6.834154E-11
-8.027000E+2	-3.539805E-10	5.612813E-11	-6.306651E+0	6.840716E-11
-8.026000E+2	-3.608532E-10	5.611988E-11	-6.430042E+0	6.863575E-11
-8.025000E+2	-3.678233E-10	5.613312E-11	-6.552697E+0	6.875025E-11
-8.024001E+2	-3.755314E-10	5.614127E-11	-6.689044E+0	6.885924E-11
-8.023000E+2	-3.839714E-10	5.612190E-11	-6.841739E+0	6.897564E-11
-8.022001E+2	-3.931144E-10	5.613143E-11	-7.003463E+0	6.933210E-11
-8.021000E+2	-4.030298E-10	5.612776E-11	-7.180579E+0	6.917465E-11
-8.019999E+2	-4.128968E-10	5.613619E-11	-7.355269E+0	6.955359E-11
-8.018999E+2	-4.220484E-10	5.614050E-11	-7.517717E+0	6.958019E-11
-8.017999E+2	-4.325332E-10	5.618194E-11	-7.698794E+0	6.961774E-11
-8.017000E+2	-4.419870E-10	5.612475E-11	-7.875082E+0	6.990528E-11
-8.016000E+2	-4.511516E-10	5.614519E-11	-8.035445E+0	7.006153E-11
-8.014999E+2	-4.597569E-10	5.614367E-11	-8.188936E+0	6.996111E-11
-8.014000E+2	-4.681360E-10	5.602060E-11	-8.356497E+0	7.027643E-11
-8.013000E+2	-4.744939E-10	5.620718E-11	-8.441873E+0	7.030700E-11
-8.011999E+2	-4.801567E-10	5.615006E-11	-8.551312E+0	7.045977E-11
-8.010999E+2	-4.876340E-10	5.615199E-11	-8.684180E+0	7.064878E-11
-8.009999E+2	-4.949549E-10	5.615453E-11	-8.814158E+0	7.061812E-11
-8.009000E+2	-5.034749E-10	5.615712E-11	-8.965469E+0	7.104863E-11
-8.008001E+2	-5.153256E-10	5.615863E-11	-9.176249E+0	7.101964E-11
-8.006999E+2	-5.311788E-10	5.615228E-11	-9.459612E+0	7.111917E-11
-8.006001E+2	-5.529114E-10	5.617013E-11	-9.843513E+0	7.136641E-11
-8.005000E+2	-5.762545E-10	5.616510E-11	-1.026001E+1	7.156414E-11
-8.004000E+2	-6.037532E-10	5.614776E-11	-1.075293E+1	7.174967E-11
-8.003000E+2	-6.356011E-10	5.617541E-11	-1.131458E+1	7.183389E-11
-8.002000E+2	-6.606176E-10	5.616422E-11	-1.176225E+1	7.215871E-11
-8.001001E+2	-6.831806E-10	5.614529E-11	-1.216808E+1	7.017873E-11
-7.999999E+2	-6.950207E-10	5.615617E-11	-1.237657E+1	7.219176E-11
-7.999000E+2	-6.930933E-10	5.618228E-11	-1.233651E+1	7.241054E-11
-7.998000E+2	-6.767368E-10	5.617138E-11	-1.204772E+1	7.251427E-11
-7.996999E+2	-6.496050E-10	5.617777E-11	-1.156338E+1	7.270278E-11
-7.995999E+2	-6.141384E-10	5.617029E-11	-1.093351E+1	7.296975E-11
-7.994999E+2	-5.749832E-10	5.614686E-11	-1.024070E+1	7.278041E-11
-7.994000E+2	-5.442972E-10	5.616454E-11	-9.691118E+0	7.289241E-11
-7.993000E+2	-5.198177E-10	5.617332E-11	-9.253818E+0	7.293968E-11
-7.992001E+2	-4.925357E-10	5.616270E-11	-8.769801E+0	7.293339E-11
-7.991000E+2	-4.704860E-10	5.616361E-11	-8.377061E+0	7.311812E-11
-7.990000E+2	-4.527201E-10	5.616040E-11	-8.061198E+0	7.318566E-11
-7.988999E+2	-4.339301E-10	5.616649E-11	-7.725783E+0	7.315849E-11
-7.987999E+2	-4.175544E-10	5.615321E-11	-7.435985E+0	7.319066E-11
-7.986999E+2	-3.969292E-10	5.618363E-11	-7.064855E+0	7.334892E-11
-7.986000E+2	-3.785482E-10	5.615131E-11	-6.741574E+0	7.325349E-11
-7.985000E+2	-3.619417E-10	5.616004E-11	-6.444826E+0	7.324531E-11
-7.983999E+2	-3.457330E-10	5.616571E-11	-6.155589E+0	7.336369E-11
-7.983001E+2	-3.314053E-10	5.615271E-11	-5.901858E+0	7.350337E-11
-7.982000E+2	-3.213557E-10	5.616285E-11	-5.721855E+0	7.353123E-11
-7.981000E+2	-3.133835E-10	5.617324E-11	-5.578875E+0	7.360536E-11
-7.980000E+2	-3.028007E-10	5.615852E-11	-5.391892E+0	7.356513E-11
-7.979000E+2	-2.934090E-10	5.615828E-11	-5.224679E+0	7.370099E-11
-7.978001E+2	-2.841556E-10	5.615866E-11	-5.059871E+0	7.364942E-11
-7.976999E+2	-2.780715E-10	5.615807E-11	-4.951586E+0	7.373816E-11
-7.976000E+2	-2.719940E-10	5.614617E-11	-4.844391E+0	7.379510E-11
-7.975000E+2	-2.658719E-10	5.614509E-11	-4.735443E+0	7.379359E-11
-7.973999E+2	-2.612607E-10	5.614540E-11	-4.653288E+0	7.405986E-11
-7.972999E+2	-2.572259E-10	5.615075E-11	-4.580988E+0	7.401120E-11
-7.971999E+2	-2.538785E-10	5.607441E-11	-4.527529E+0	7.395274E-11
-7.971000E+2	-2.511155E-10	5.616940E-11	-4.470682E+0	7.533998E-11
-7.970000E+2	-2.491811E-10	5.621296E-11	-4.432805E+0	7.454942E-11
-7.968999E+2	-2.474119E-10	5.611143E-11	-4.409296E+0	7.446269E-11
-7.968001E+2	-2.461551E-10	5.612639E-11	-4.385728E+0	7.465262E-11
-7.967000E+2	-2.449749E-10	5.611007E-11	-4.365970E+0	7.462275E-11
-7.966000E+2	-2.439831E-10	5.611472E-11	-4.347934E+0	7.467869E-11
-7.965000E+2	-2.430196E-10	5.612688E-11	-4.329826E+0	7.478269E-11
-7.964000E+2	-2.424113E-10	5.611755E-11	-4.319706E+0	7.495504E-11
-7.963000E+2	-2.418589E-10	5.611595E-11	-4.309985E+0	7.509031E-11
-7.961999E+2	-2.414405E-10	5.612825E-11	-4.301586E+0	7.502346E-11
-7.961000E+2	-2.411008E-10	5.611224E-11	-4.296759E+0	7.516793E-11
-7.960000E+2	-2.407047E-10	5.610892E-11	-4.289954E+0	7.538494E-11
-7.958999E+2	-2.406061E-10	5.610932E-11	-4.288166E+0	7.541661E-11
-7.958001E+2	-2.403948E-10	5.612032E-11	-4.283561E+0	7.546436E-11
-7.957001E+2	-2.403577E-10	5.611020E-11	-4.283672E+0	7.550513E-11
-7.955999E+2	-2.400581E-10	5.609836E-11	-4.279236E+0	7.560502E-11
-7.955000E+2	-2.400713E-10	5.609198E-11	-4.279958E+0	7.579234E-11
-7.954001E+2	-2.399851E-10	5.608552E-11	-4.278914E+0	7.598568E-11
-7.953000E+2	-2.398350E-10	5.607493E-11	-4.277045E+0	7.591594E-11
-7.951999E+2	-2.396927E-10	5.607699E-11	-4.274350E+0	7.612724E-11
-7.950999E+2	-2.397068E-10	5.605568E-11	-4.276227E+0	7.611485E-11
-7.949999E+2	-2.394634E-10	5.607732E-11	-4.270236E+0	7.629090E-11
-7.948999E+2	-2.392647E-10	5.606616E-11	-4.267542E+0	7.619349E-11
-7.948000E+2	-2.390421E-10	5.605159E-11	-4.264680E+0	7.639151E-11
-7.947001E+2	-2.388214E-10	5.604068E-11	-4.261572E+0	7.652470E-11
-7.946000E+2	-2.386076E-10	5.603896E-11	-4.257888E+0	7.653939E-11
-7.945001E+2	-2.381797E-10	5.604029E-11	-4.250151E+0	7.679134E-11
-7.944000E+2	-2.378381E-10	5.604403E-11	-4.243772E+0	7.672783E-11
-7.943000E+2	-2.375045E-10	5.602591E-11	-4.239190E+0	7.682603E-11
-7.942000E+2	-2.371865E-10	5.601793E-11	-4.234118E+0	7.692651E-11
-7.941001E+2	-2.366701E-10	5.602752E-11	-4.224176E+0	7.712084E-11
-7.939999E+2	-2.364511E-10	5.600937E-11	-4.221635E+0	7.712636E-11
-7.939000E+2	-2.360481E-10	5.600225E-11	-4.214975E+0	7.738169E-11
-7.937999E+2	-2.356778E-10	5.600289E-11	-4.208315E+0	7.753687E-11
-7.937001E+2	-2.354229E-10	5.599845E-11	-4.204097E+0	7.747772E-11
-7.936000E+2	-2.350225E-10	5.599717E-11	-4.197042E+0	7.772639E-11
-7.935000E+2	-2.349229E-10	5.598786E-11	-4.195961E+0	7.761430E-11
-7.934001E+2	-2.346058E-10	5.598532E-11	-4.190488E+0	7.772089E-11
-7.932999E+2	-2.343228E-10	5.598052E-11	-4.185792E+0	7.789144E-11
-7.932000E+2	-2.341583E-10	5.597189E-11	-4.183498E+0	7.796588E-11
-7.931001E+2	-2.340575E-10	5.595370E-11	-4.183057E+0	7.786646E-11
-7.930000E+2	-2.337756E-10	5.601045E-11	-4.173785E+0	7.809575E-11
-7.929000E+2	-2.338102E-10	5.594209E-11	-4.179504E+0	7.831674E-11
-7.928000E+2	-2.337267E-10	5.593725E-11	-4.178373E+0	7.814382E-11
-7.927000E+2	-2.335498E-10	5.591504E-11	-4.176869E+0	7.835491E-11
-7.926000E+2	-2.336266E-10	5.591654E-11	-4.178130E+0	7.857012E-11
-7.925001E+2	-2.337919E-10	5.589445E-11	-4.182739E+0	7.860768E-11
-7.924000E+2	-2.338388E-10	5.590163E-11	-4.183041E+0	7.868758E-11
-7.923001E+2	-2.340202E-10	5.589139E-11	-4.187053E+0	7.894724E-11
-7.922000E+2	-2.342610E-10	5.588376E-11	-4.191933E+0	7.900680E-11
-7.921000E+2	-2.347263E-10	5.585860E-11	-4.202152E+0	7.917027E-11
-7.920000E+2	-2.350117E-10	5.585402E-11	-4.207606E+0	7.928425E-11
-7.919000E+2	-2.353437E-10	5.584876E-11	-4.213947E+0	7.933411E-11
-7.918001E+2	-2.358621E-10	5.581970E-11	-4.225428E+0	7.945630E-11
-7.917000E+2	-2.364508E-10	5.583154E-11	-4.235076E+0	7.942102E-11
-7.916001E+2	-2.369956E-10	5.582037E-11	-4.245683E+0	7.958947E-11
-7.915000E+2	-2.377544E-10	5.580367E-11	-4.260551E+0	7.981935E-11
-7.913999E+2	-2.384101E-10	5.580598E-11	-4.272125E+0	7.982107E-11
-7.912999E+2	-2.394813E-10	5.578364E-11	-4.293038E+0	7.996313E-11
-7.912000E+2	-2.403281E-10	5.577775E-11	-4.308673E+0	8.016414E-11
-7.911000E+2	-2.411732E-10	5.576985E-11	-4.324437E+0	8.016224E-11
-7.910001E+2	-2.422870E-10	5.576103E-11	-4.345095E+0	8.042050E-11
-7.909000E+2	-2.434577E-10	5.575273E-11	-4.366740E+0	8.034456E-11
-7.908001E+2	-2.448314E-10	5.574227E-11	-4.392204E+0	8.054919E-11
-7.907000E+2	-2.461635E-10	5.572261E-11	-4.417659E+0	8.076906E-11
-7.906000E+2	-2.477659E-10	5.572039E-11	-4.446593E+0	8.079205E-11
-7.905000E+2	-2.496758E-10	5.570135E-11	-4.482401E+0	8.090326E-11
-7.904000E+2	-2.515398E-10	5.566995E-11	-4.518413E+0	8.108689E-11
-7.903001E+2	-2.533542E-10	5.568157E-11	-4.550055E+0	8.118748E-11
-7.902000E+2	-2.553801E-10	5.566842E-11	-4.587522E+0	8.116200E-11
-7.901001E+2	-2.575801E-10	5.564876E-11	-4.628676E+0	8.137151E-11
-7.900000E+2	-2.601171E-10	5.564542E-11	-4.674546E+0	8.156214E-11
-7.899000E+2	-2.627175E-10	5.562151E-11	-4.723308E+0	8.148840E-11
-7.898000E+2	-2.651869E-10	5.561325E-11	-4.768412E+0	8.169031E-11
-7.897000E+2	-2.680119E-10	5.560203E-11	-4.820182E+0	8.168131E-11
-7.896000E+2	-2.708888E-10	5.560583E-11	-4.871590E+0	8.179824E-11
-7.894999E+2	-2.740884E-10	5.559359E-11	-4.930216E+0	8.177035E-11
-7.894000E+2	-2.770732E-10	5.558137E-11	-4.985001E+0	8.183928E-11
-7.893000E+2	-2.806513E-10	5.557563E-11	-5.049899E+0	8.202593E-11
-7.891999E+2	-2.845512E-10	5.556318E-11	-5.121219E+0	8.194678E-11
-7.891001E+2	-2.892152E-10	5.554559E-11	-5.206808E+0	8.221914E-11
-7.889999E+2	-2.943035E-10	5.552828E-11	-5.300065E+0	8.240588E-11
-7.888999E+2	-3.002640E-10	5.551081E-11	-5.409109E+0	8.236391E-11
-7.888000E+2	-3.066160E-10	5.558169E-11	-5.516493E+0	8.243524E-11
-7.887001E+2	-3.135109E-10	5.548616E-11	-5.650254E+0	8.257881E-11
-7.886000E+2	-3.211139E-10	5.546214E-11	-5.789786E+0	8.261909E-11
-7.885000E+2	-3.297393E-10	5.546305E-11	-5.945207E+0	8.296434E-11
-7.883999E+2	-3.388692E-10	5.544778E-11	-6.111502E+0	8.297005E-11
-7.882999E+2	-3.492727E-10	5.535033E-11	-6.310219E+0	8.287206E-11
-7.882000E+2	-3.614868E-10	5.543542E-11	-6.520863E+0	8.313519E-11
-7.881000E+2	-3.735552E-10	5.539751E-11	-6.743177E+0	8.329606E-11
-7.879999E+2	-3.858560E-10	5.538474E-11	-6.966829E+0	8.336798E-11
-7.879000E+2	-3.995593E-10	5.538148E-11	-7.214674E+0	8.362334E-11
-7.878000E+2	-4.129209E-10	5.534104E-11	-7.461387E+0	8.371137E-11
-7.876999E+2	-4.255118E-10	5.534750E-11	-7.688004E+0	8.383595E-11
-7.875999E+2	-4.378859E-10	5.531629E-11	-7.916039E+0	8.400149E-11
-7.874999E+2	-4.527961E-10	5.535478E-11	-8.179892E+0	8.428022E-11
-7.874000E+2	-4.665632E-10	5.537266E-11	-8.425877E+0	8.442350E-11
-7.873001E+2	-4.777485E-10	5.538293E-11	-8.626277E+0	8.462903E-11
-7.872000E+2	-4.887201E-10	5.541135E-11	-8.819855E+0	8.463941E-11
-7.871001E+2	-5.006711E-10	5.544053E-11	-9.030778E+0	8.480423E-11
-7.870000E+2	-5.099222E-10	5.547460E-11	-9.191994E+0	8.536542E-11
-7.869000E+2	-5.191555E-10	5.543437E-11	-9.365228E+0	8.534345E-11
-7.868000E+2	-5.291576E-10	5.541258E-11	-9.549413E+0	8.516782E-11
-7.867001E+2	-5.423658E-10	5.541458E-11	-9.787421E+0	8.541470E-11
-7.866000E+2	-5.589364E-10	5.540137E-11	-1.008886E+1	8.550532E-11
-7.865000E+2	-5.789607E-10	5.538008E-11	-1.045431E+1	8.573858E-11
-7.864000E+2	-6.027920E-10	5.530762E-11	-1.089890E+1	8.589075E-11
-7.862999E+2	-6.286193E-10	5.532705E-11	-1.136188E+1	8.611533E-11
-7.862001E+2	-6.545904E-10	5.540023E-11	-1.181566E+1	8.622773E-11
-7.861001E+2	-6.850633E-10	5.531719E-11	-1.238428E+1	8.660747E-11
-7.859999E+2	-7.211787E-10	5.529218E-11	-1.304305E+1	8.651745E-11
-7.859000E+2	-7.549987E-10	5.528680E-11	-1.365604E+1	8.686733E-11
-7.858001E+2	-7.853280E-10	5.526458E-11	-1.421033E+1	8.717414E-11
-7.857000E+2	-8.196860E-10	5.525150E-11	-1.483554E+1	8.718213E-11
-7.855999E+2	-8.526415E-10	5.522027E-11	-1.544073E+1	8.737018E-11
-7.855001E+2	-8.832824E-10	5.522262E-11	-1.599494E+1	8.750674E-11
-7.854001E+2	-9.112018E-10	5.519199E-11	-1.650967E+1	8.759515E-11
-7.852999E+2	-9.368069E-10	5.518375E-11	-1.697614E+1	8.796381E-11
-7.852000E+2	-9.515593E-10	5.516245E-11	-1.725013E+1	8.796520E-11
-7.851001E+2	-9.499067E-10	5.512842E-11	-1.723080E+1	8.808740E-11
-7.850000E+2	-9.281853E-10	5.512592E-11	-1.683755E+1	8.834448E-11
